Time(s),Position(m),Velocity(m/s)
0.00,2.00,49.00
0.01,2.49,48.90
0.02,2.98,48.80
0.03,3.47,48.71
0.04,3.95,48.61
0.05,4.44,48.51
0.06,4.93,48.41
0.07,5.41,48.31
0.08,5.89,48.22
0.09,6.37,48.12
0.10,6.86,48.02
0.11,7.34,47.92
0.12,7.82,47.82
0.13,8.29,47.73
0.14,8.77,47.63
0.15,9.25,47.53
0.16,9.72,47.43
0.17,10.20,47.33
0.18,10.67,47.24
0.19,11.14,47.14
0.20,11.61,47.04
0.21,12.08,46.94
0.22,12.55,46.84
0.23,13.02,46.75
0.24,13.49,46.65
0.25,13.96,46.55
0.26,14.42,46.45
0.27,14.89,46.35
0.28,15.35,46.26
0.29,15.81,46.16
0.30,16.27,46.06
0.31,16.73,45.96
0.32,17.19,45.86
0.33,17.65,45.77
0.34,18.11,45.67
0.35,18.57,45.57
0.36,19.02,45.47
0.37,19.48,45.37
0.38,19.93,45.28
0.39,20.38,45.18
0.40,20.84,45.08
0.41,21.29,44.98
0.42,21.74,44.88
0.43,22.19,44.79
0.44,22.63,44.69
0.45,23.08,44.59
0.46,23.53,44.49
0.47,23.97,44.39
0.48,24.41,44.30
0.49,24.86,44.20
0.50,25.30,44.10
0.51,25.74,44.00
0.52,26.18,43.90
0.53,26.62,43.81
0.54,27.06,43.71
0.55,27.49,43.61
0.56,27.93,43.51
0.57,28.37,43.41
0.58,28.80,43.32
0.59,29.23,43.22
0.60,29.67,43.12
0.61,30.10,43.02
0.62,30.53,42.92
0.63,30.96,42.83
0.64,31.38,42.73
0.65,31.81,42.63
0.66,32.24,42.53
0.67,32.66,42.43
0.68,33.09,42.34
0.69,33.51,42.24
0.70,33.93,42.14
0.71,34.35,42.04
0.72,34.78,41.94
0.73,35.19,41.85
0.74,35.61,41.75
0.75,36.03,41.65
0.76,36.45,41.55
0.77,36.86,41.45
0.78,37.28,41.36
0.79,37.69,41.26
0.80,38.10,41.16
0.81,38.51,41.06
0.82,38.93,40.96
0.83,39.34,40.87
0.84,39.74,40.77
0.85,40.15,40.67
0.86,40.56,40.57
0.87,40.96,40.47
0.88,41.37,40.38
0.89,41.77,40.28
0.90,42.18,40.18
0.91,42.58,40.08
0.92,42.98,39.98
0.93,43.38,39.89
0.94,43.78,39.79
0.95,44.17,39.69
0.96,44.57,39.59
0.97,44.97,39.49
0.98,45.36,39.40
0.99,45.76,39.30
1.00,46.15,39.20
1.01,46.54,39.10
1.02,46.93,39.00
1.03,47.32,38.91
1.04,47.71,38.81
1.05,48.10,38.71
1.06,48.49,38.61
1.07,48.87,38.51
1.08,49.26,38.42
1.09,49.64,38.32
1.10,50.02,38.22
1.11,50.41,38.12
1.12,50.79,38.02
1.13,51.17,37.93
1.14,51.55,37.83
1.15,51.93,37.73
1.16,52.30,37.63
1.17,52.68,37.53
1.18,53.06,37.44
1.19,53.43,37.34
1.20,53.80,37.24
1.21,54.18,37.14
1.22,54.55,37.04
1.23,54.92,36.95
1.24,55.29,36.85
1.25,55.66,36.75
1.26,56.02,36.65
1.27,56.39,36.55
1.28,56.75,36.46
1.29,57.12,36.36
1.30,57.48,36.26
1.31,57.85,36.16
1.32,58.21,36.06
1.33,58.57,35.97
1.34,58.93,35.87
1.35,59.29,35.77
1.36,59.64,35.67
1.37,60.00,35.57
1.38,60.36,35.48
1.39,60.71,35.38
1.40,61.06,35.28
1.41,61.42,35.18
1.42,61.77,35.08
1.43,62.12,34.99
1.44,62.47,34.89
1.45,62.82,34.79
1.46,63.17,34.69
1.47,63.51,34.59
1.48,63.86,34.50
1.49,64.20,34.40
1.50,64.55,34.30
1.51,64.89,34.20
1.52,65.23,34.10
1.53,65.57,34.01
1.54,65.91,33.91
1.55,66.25,33.81
1.56,66.59,33.71
1.57,66.93,33.61
1.58,67.27,33.52
1.59,67.60,33.42
1.60,67.93,33.32
1.61,68.27,33.22
1.62,68.60,33.12
1.63,68.93,33.03
1.64,69.26,32.93
1.65,69.59,32.83
1.66,69.92,32.73
1.67,70.25,32.63
1.68,70.57,32.54
1.69,70.90,32.44
1.70,71.22,32.34
1.71,71.55,32.24
1.72,71.87,32.14
1.73,72.19,32.05
1.74,72.51,31.95
1.75,72.83,31.85
1.76,73.15,31.75
1.77,73.47,31.65
1.78,73.78,31.56
1.79,74.10,31.46
1.80,74.41,31.36
1.81,74.73,31.26
1.82,75.04,31.16
1.83,75.35,31.07
1.84,75.66,30.97
1.85,75.97,30.87
1.86,76.28,30.77
1.87,76.59,30.67
1.88,76.89,30.58
1.89,77.20,30.48
1.90,77.50,30.38
1.91,77.81,30.28
1.92,78.11,30.18
1.93,78.41,30.09
1.94,78.71,29.99
1.95,79.01,29.89
1.96,79.31,29.79
1.97,79.61,29.69
1.98,79.91,29.60
1.99,80.20,29.50
2.00,80.50,29.40
2.01,80.79,29.30
2.02,81.09,29.20
2.03,81.38,29.11
2.04,81.67,29.01
2.05,81.96,28.91
2.06,82.25,28.81
2.07,82.54,28.71
2.08,82.82,28.62
2.09,83.11,28.52
2.10,83.39,28.42
2.11,83.68,28.32
2.12,83.96,28.22
2.13,84.24,28.13
2.14,84.52,28.03
2.15,84.81,27.93
2.16,85.08,27.83
2.17,85.36,27.73
2.18,85.64,27.64
2.19,85.92,27.54
2.20,86.19,27.44
2.21,86.47,27.34
2.22,86.74,27.24
2.23,87.01,27.15
2.24,87.28,27.05
2.25,87.55,26.95
2.26,87.82,26.85
2.27,88.09,26.75
2.28,88.36,26.66
2.29,88.63,26.56
2.30,88.89,26.46
2.31,89.16,26.36
2.32,89.42,26.26
2.33,89.68,26.17
2.34,89.94,26.07
2.35,90.21,25.97
2.36,90.46,25.87
2.37,90.72,25.77
2.38,90.98,25.68
2.39,91.24,25.58
2.40,91.49,25.48
2.41,91.75,25.38
2.42,92.00,25.28
2.43,92.26,25.19
2.44,92.51,25.09
2.45,92.76,24.99
2.46,93.01,24.89
2.47,93.26,24.79
2.48,93.50,24.70
2.49,93.75,24.60
2.50,94.00,24.50
2.51,94.24,24.40
2.52,94.49,24.30
2.53,94.73,24.21
2.54,94.97,24.11
2.55,95.21,24.01
2.56,95.45,23.91
2.57,95.69,23.81
2.58,95.93,23.72
2.59,96.17,23.62
2.60,96.40,23.52
2.61,96.64,23.42
2.62,96.87,23.32
2.63,97.11,23.23
2.64,97.34,23.13
2.65,97.57,23.03
2.66,97.80,22.93
2.67,98.03,22.83
2.68,98.26,22.74
2.69,98.49,22.64
2.70,98.71,22.54
2.71,98.94,22.44
2.72,99.16,22.34
2.73,99.38,22.25
2.74,99.61,22.15
2.75,99.83,22.05
2.76,100.05,21.95
2.77,100.27,21.85
2.78,100.49,21.76
2.79,100.70,21.66
2.80,100.92,21.56
2.81,101.14,21.46
2.82,101.35,21.36
2.83,101.57,21.27
2.84,101.78,21.17
2.85,101.99,21.07
2.86,102.20,20.97
2.87,102.41,20.87
2.88,102.62,20.78
2.89,102.83,20.68
2.90,103.03,20.58
2.91,103.24,20.48
2.92,103.44,20.38
2.93,103.65,20.29
2.94,103.85,20.19
2.95,104.05,20.09
2.96,104.25,19.99
2.97,104.45,19.89
2.98,104.65,19.80
2.99,104.85,19.70
3.00,105.05,19.60
3.01,105.24,19.50
3.02,105.44,19.40
3.03,105.63,19.31
3.04,105.83,19.21
3.05,106.02,19.11
3.06,106.21,19.01
3.07,106.40,18.91
3.08,106.59,18.82
3.09,106.78,18.72
3.10,106.96,18.62
3.11,107.15,18.52
3.12,107.33,18.42
3.13,107.52,18.33
3.14,107.70,18.23
3.15,107.88,18.13
3.16,108.07,18.03
3.17,108.25,17.93
3.18,108.43,17.84
3.19,108.60,17.74
3.20,108.78,17.64
3.21,108.96,17.54
3.22,109.13,17.44
3.23,109.31,17.35
3.24,109.48,17.25
3.25,109.65,17.15
3.26,109.82,17.05
3.27,110.00,16.95
3.28,110.16,16.86
3.29,110.33,16.76
3.30,110.50,16.66
3.31,110.67,16.56
3.32,110.83,16.46
3.33,111.00,16.37
3.34,111.16,16.27
3.35,111.32,16.17
3.36,111.49,16.07
3.37,111.65,15.97
3.38,111.81,15.88
3.39,111.97,15.78
3.40,112.12,15.68
3.41,112.28,15.58
3.42,112.44,15.48
3.43,112.59,15.39
3.44,112.74,15.29
3.45,112.90,15.19
3.46,113.05,15.09
3.47,113.20,14.99
3.48,113.35,14.90
3.49,113.50,14.80
3.50,113.65,14.70
3.51,113.79,14.60
3.52,113.94,14.50
3.53,114.08,14.41
3.54,114.23,14.31
3.55,114.37,14.21
3.56,114.51,14.11
3.57,114.66,14.01
3.58,114.80,13.92
3.59,114.93,13.82
3.60,115.07,13.72
3.61,115.21,13.62
3.62,115.35,13.52
3.63,115.48,13.43
3.64,115.62,13.33
3.65,115.75,13.23
3.66,115.88,13.13
3.67,116.01,13.03
3.68,116.14,12.94
3.69,116.27,12.84
3.70,116.40,12.74
3.71,116.53,12.64
3.72,116.65,12.54
3.73,116.78,12.45
3.74,116.90,12.35
3.75,117.03,12.25
3.76,117.15,12.15
3.77,117.27,12.05
3.78,117.39,11.96
3.79,117.51,11.86
3.80,117.63,11.76
3.81,117.75,11.66
3.82,117.86,11.56
3.83,117.98,11.47
3.84,118.10,11.37
3.85,118.21,11.27
3.86,118.32,11.17
3.87,118.43,11.07
3.88,118.54,10.98
3.89,118.65,10.88
3.90,118.76,10.78
3.91,118.87,10.68
3.92,118.98,10.58
3.93,119.08,10.49
3.94,119.19,10.39
3.95,119.29,10.29
3.96,119.39,10.19
3.97,119.50,10.09
3.98,119.60,10.00
3.99,119.70,9.90
4.00,119.80,9.80
4.01,119.89,9.70
4.02,119.99,9.60
4.03,120.09,9.51
4.04,120.18,9.41
4.05,120.28,9.31
4.06,120.37,9.21
4.07,120.46,9.11
4.08,120.55,9.02
4.09,120.64,8.92
4.10,120.73,8.82
4.11,120.82,8.72
4.12,120.91,8.62
4.13,120.99,8.53
4.14,121.08,8.43
4.15,121.16,8.33
4.16,121.25,8.23
4.17,121.33,8.13
4.18,121.41,8.04
4.19,121.49,7.94
4.20,121.57,7.84
4.21,121.65,7.74
4.22,121.73,7.64
4.23,121.80,7.55
4.24,121.88,7.45
4.25,121.95,7.35
4.26,122.03,7.25
4.27,122.10,7.15
4.28,122.17,7.06
4.29,122.24,6.96
4.30,122.31,6.86
4.31,122.38,6.76
4.32,122.45,6.66
4.33,122.51,6.57
4.34,122.58,6.47
4.35,122.64,6.37
4.36,122.71,6.27
4.37,122.77,6.17
4.38,122.83,6.08
4.39,122.89,5.98
4.40,122.95,5.88
4.41,123.01,5.78
4.42,123.07,5.68
4.43,123.13,5.59
4.44,123.18,5.49
4.45,123.24,5.39
4.46,123.29,5.29
4.47,123.34,5.19
4.48,123.40,5.10
4.49,123.45,5.00
4.50,123.50,4.90
4.51,123.54,4.80
4.52,123.59,4.70
4.53,123.64,4.61
4.54,123.69,4.51
4.55,123.73,4.41
4.56,123.78,4.31
4.57,123.82,4.21
4.58,123.86,4.12
4.59,123.90,4.02
4.60,123.94,3.92
4.61,123.98,3.82
4.62,124.02,3.72
4.63,124.06,3.63
4.64,124.09,3.53
4.65,124.13,3.43
4.66,124.16,3.33
4.67,124.20,3.23
4.68,124.23,3.14
4.69,124.26,3.04
4.70,124.29,2.94
4.71,124.32,2.84
4.72,124.35,2.74
4.73,124.38,2.65
4.74,124.40,2.55
4.75,124.43,2.45
4.76,124.45,2.35
4.77,124.48,2.25
4.78,124.50,2.16
4.79,124.52,2.06
4.80,124.54,1.96
4.81,124.56,1.86
4.82,124.58,1.76
4.83,124.60,1.67
4.84,124.61,1.57
4.85,124.63,1.47
4.86,124.64,1.37
4.87,124.66,1.27
4.88,124.67,1.18
4.89,124.68,1.08
4.90,124.69,0.98
4.91,124.70,0.88
4.92,124.71,0.78
4.93,124.72,0.69
4.94,124.72,0.59
4.95,124.73,0.49
4.96,124.74,0.39
4.97,124.74,0.29
4.98,124.74,0.20
4.99,124.74,0.10
5.00,124.75,0.00
5.01,124.75,-0.10
5.02,124.74,-0.20
5.03,124.74,-0.29
5.04,124.74,-0.39
5.05,124.74,-0.49
5.06,124.73,-0.59
5.07,124.72,-0.69
5.08,124.72,-0.78
5.09,124.71,-0.88
5.10,124.70,-0.98
5.11,124.69,-1.08
5.12,124.68,-1.18
5.13,124.67,-1.27
5.14,124.66,-1.37
5.15,124.64,-1.47
5.16,124.63,-1.57
5.17,124.61,-1.67
5.18,124.60,-1.76
5.19,124.58,-1.86
5.20,124.56,-1.96
5.21,124.54,-2.06
5.22,124.52,-2.16
5.23,124.50,-2.25
5.24,124.48,-2.35
5.25,124.45,-2.45
5.26,124.43,-2.55
5.27,124.40,-2.65
5.28,124.38,-2.74
5.29,124.35,-2.84
5.30,124.32,-2.94
5.31,124.29,-3.04
5.32,124.26,-3.14
5.33,124.23,-3.23
5.34,124.20,-3.33
5.35,124.16,-3.43
5.36,124.13,-3.53
5.37,124.09,-3.63
5.38,124.06,-3.72
5.39,124.02,-3.82
5.40,123.98,-3.92
5.41,123.94,-4.02
5.42,123.90,-4.12
5.43,123.86,-4.21
5.44,123.82,-4.31
5.45,123.78,-4.41
5.46,123.73,-4.51
5.47,123.69,-4.61
5.48,123.64,-4.70
5.49,123.59,-4.80
5.50,123.55,-4.90
5.51,123.50,-5.00
5.52,123.45,-5.10
5.53,123.40,-5.19
5.54,123.34,-5.29
5.55,123.29,-5.39
5.56,123.24,-5.49
5.57,123.18,-5.59
5.58,123.13,-5.68
5.59,123.07,-5.78
5.60,123.01,-5.88
5.61,122.95,-5.98
5.62,122.89,-6.08
5.63,122.83,-6.17
5.64,122.77,-6.27
5.65,122.71,-6.37
5.66,122.64,-6.47
5.67,122.58,-6.57
5.68,122.51,-6.66
5.69,122.45,-6.76
5.70,122.38,-6.86
5.71,122.31,-6.96
5.72,122.24,-7.06
5.73,122.17,-7.15
5.74,122.10,-7.25
5.75,122.03,-7.35
5.76,121.95,-7.45
5.77,121.88,-7.55
5.78,121.80,-7.64
5.79,121.73,-7.74
5.80,121.65,-7.84
5.81,121.57,-7.94
5.82,121.49,-8.04
5.83,121.41,-8.13
5.84,121.33,-8.23
5.85,121.25,-8.33
5.86,121.16,-8.43
5.87,121.08,-8.53
5.88,120.99,-8.62
5.89,120.91,-8.72
5.90,120.82,-8.82
5.91,120.73,-8.92
5.92,120.64,-9.02
5.93,120.55,-9.11
5.94,120.46,-9.21
5.95,120.37,-9.31
5.96,120.28,-9.41
5.97,120.18,-9.51
5.98,120.09,-9.60
5.99,119.99,-9.70
6.00,119.89,-9.80
6.01,119.80,-9.90
6.02,119.70,-10.00
6.03,119.60,-10.09
6.04,119.50,-10.19
6.05,119.39,-10.29
6.06,119.29,-10.39
6.07,119.19,-10.49
6.08,119.08,-10.58
6.09,118.98,-10.68
6.10,118.87,-10.78
6.11,118.76,-10.88
6.12,118.65,-10.98
6.13,118.54,-11.07
6.14,118.43,-11.17
6.15,118.32,-11.27
6.16,118.21,-11.37
6.17,118.10,-11.47
6.18,117.98,-11.56
6.19,117.87,-11.66
6.20,117.75,-11.76
6.21,117.63,-11.86
6.22,117.51,-11.96
6.23,117.39,-12.05
6.24,117.27,-12.15
6.25,117.15,-12.25
6.26,117.03,-12.35
6.27,116.90,-12.45
6.28,116.78,-12.54
6.29,116.65,-12.64
6.30,116.53,-12.74
6.31,116.40,-12.84
6.32,116.27,-12.94
6.33,116.14,-13.03
6.34,116.01,-13.13
6.35,115.88,-13.23
6.36,115.75,-13.33
6.37,115.62,-13.43
6.38,115.48,-13.52
6.39,115.35,-13.62
6.40,115.21,-13.72
6.41,115.07,-13.82
6.42,114.94,-13.92
6.43,114.80,-14.01
6.44,114.66,-14.11
6.45,114.51,-14.21
6.46,114.37,-14.31
6.47,114.23,-14.41
6.48,114.09,-14.50
6.49,113.94,-14.60
6.50,113.79,-14.70
6.51,113.65,-14.80
6.52,113.50,-14.90
6.53,113.35,-14.99
6.54,113.20,-15.09
6.55,113.05,-15.19
6.56,112.90,-15.29
6.57,112.74,-15.39
6.58,112.59,-15.48
6.59,112.44,-15.58
6.60,112.28,-15.68
6.61,112.12,-15.78
6.62,111.97,-15.88
6.63,111.81,-15.97
6.64,111.65,-16.07
6.65,111.49,-16.17
6.66,111.32,-16.27
6.67,111.16,-16.37
6.68,111.00,-16.46
6.69,110.83,-16.56
6.70,110.67,-16.66
6.71,110.50,-16.76
6.72,110.33,-16.86
6.73,110.17,-16.95
6.74,110.00,-17.05
6.75,109.83,-17.15
6.76,109.65,-17.25
6.77,109.48,-17.35
6.78,109.31,-17.44
6.79,109.13,-17.54
6.80,108.96,-17.64
6.81,108.78,-17.74
6.82,108.60,-17.84
6.83,108.43,-17.93
6.84,108.25,-18.03
6.85,108.07,-18.13
6.86,107.88,-18.23
6.87,107.70,-18.33
6.88,107.52,-18.42
6.89,107.34,-18.52
6.90,107.15,-18.62
6.91,106.96,-18.72
6.92,106.78,-18.82
6.93,106.59,-18.91
6.94,106.40,-19.01
6.95,106.21,-19.11
6.96,106.02,-19.21
6.97,105.83,-19.31
6.98,105.63,-19.40
6.99,105.44,-19.50
7.00,105.24,-19.60
7.01,105.05,-19.70
7.02,104.85,-19.80
7.03,104.65,-19.89
7.04,104.45,-19.99
7.05,104.25,-20.09
7.06,104.05,-20.19
7.07,103.85,-20.29
7.08,103.65,-20.38
7.09,103.44,-20.48
7.10,103.24,-20.58
7.11,103.03,-20.68
7.12,102.83,-20.78
7.13,102.62,-20.87
7.14,102.41,-20.97
7.15,102.20,-21.07
7.16,101.99,-21.17
7.17,101.78,-21.27
7.18,101.57,-21.36
7.19,101.35,-21.46
7.20,101.14,-21.56
7.21,100.92,-21.66
7.22,100.71,-21.76
7.23,100.49,-21.85
7.24,100.27,-21.95
7.25,100.05,-22.05
7.26,99.83,-22.15
7.27,99.61,-22.25
7.28,99.39,-22.34
7.29,99.16,-22.44
7.30,98.94,-22.54
7.31,98.71,-22.64
7.32,98.49,-22.74
7.33,98.26,-22.83
7.34,98.03,-22.93
7.35,97.80,-23.03
7.36,97.57,-23.13
7.37,97.34,-23.23
7.38,97.11,-23.32
7.39,96.87,-23.42
7.40,96.64,-23.52
7.41,96.40,-23.62
7.42,96.17,-23.72
7.43,95.93,-23.81
7.44,95.69,-23.91
7.45,95.45,-24.01
7.46,95.21,-24.11
7.47,94.97,-24.21
7.48,94.73,-24.30
7.49,94.49,-24.40
7.50,94.24,-24.50
7.51,94.00,-24.60
7.52,93.75,-24.70
7.53,93.51,-24.79
7.54,93.26,-24.89
7.55,93.01,-24.99
7.56,92.76,-25.09
7.57,92.51,-25.19
7.58,92.26,-25.28
7.59,92.00,-25.38
7.60,91.75,-25.48
7.61,91.49,-25.58
7.62,91.24,-25.68
7.63,90.98,-25.77
7.64,90.72,-25.87
7.65,90.47,-25.97
7.66,90.21,-26.07
7.67,89.95,-26.17
7.68,89.68,-26.26
7.69,89.42,-26.36
7.70,89.16,-26.46
7.71,88.89,-26.56
7.72,88.63,-26.66
7.73,88.36,-26.75
7.74,88.09,-26.85
7.75,87.82,-26.95
7.76,87.56,-27.05
7.77,87.28,-27.15
7.78,87.01,-27.24
7.79,86.74,-27.34
7.80,86.47,-27.44
7.81,86.19,-27.54
7.82,85.92,-27.64
7.83,85.64,-27.73
7.84,85.36,-27.83
7.85,85.09,-27.93
7.86,84.81,-28.03
7.87,84.53,-28.13
7.88,84.24,-28.22
7.89,83.96,-28.32
7.90,83.68,-28.42
7.91,83.40,-28.52
7.92,83.11,-28.62
7.93,82.82,-28.71
7.94,82.54,-28.81
7.95,82.25,-28.91
7.96,81.96,-29.01
7.97,81.67,-29.11
7.98,81.38,-29.20
7.99,81.09,-29.30
8.00,80.79,-29.40
8.01,80.50,-29.50
8.02,80.20,-29.60
8.03,79.91,-29.69
8.04,79.61,-29.79
8.05,79.31,-29.89
8.06,79.01,-29.99
8.07,78.71,-30.09
8.08,78.41,-30.18
8.09,78.11,-30.28
8.10,77.81,-30.38
8.11,77.51,-30.48
8.12,77.20,-30.58
8.13,76.89,-30.67
8.14,76.59,-30.77
8.15,76.28,-30.87
8.16,75.97,-30.97
8.17,75.66,-31.07
8.18,75.35,-31.16
8.19,75.04,-31.26
8.20,74.73,-31.36
8.21,74.41,-31.46
8.22,74.10,-31.56
8.23,73.78,-31.65
8.24,73.47,-31.75
8.25,73.15,-31.85
8.26,72.83,-31.95
8.27,72.51,-32.05
8.28,72.19,-32.14
8.29,71.87,-32.24
8.30,71.55,-32.34
8.31,71.22,-32.44
8.32,70.90,-32.54
8.33,70.57,-32.63
8.34,70.25,-32.73
8.35,69.92,-32.83
8.36,69.59,-32.93
8.37,69.26,-33.03
8.38,68.93,-33.12
8.39,68.60,-33.22
8.40,68.27,-33.32
8.41,67.94,-33.42
8.42,67.60,-33.52
8.43,67.27,-33.61
8.44,66.93,-33.71
8.45,66.59,-33.81
8.46,66.25,-33.91
8.47,65.92,-34.01
8.48,65.58,-34.10
8.49,65.23,-34.20
8.50,64.89,-34.30
8.51,64.55,-34.40
8.52,64.21,-34.50
8.53,63.86,-34.59
8.54,63.51,-34.69
8.55,63.17,-34.79
8.56,62.82,-34.89
8.57,62.47,-34.99
8.58,62.12,-35.08
8.59,61.77,-35.18
8.60,61.42,-35.28
8.61,61.07,-35.38
8.62,60.71,-35.48
8.63,60.36,-35.57
8.64,60.00,-35.67
8.65,59.64,-35.77
8.66,59.29,-35.87
8.67,58.93,-35.97
8.68,58.57,-36.06
8.69,58.21,-36.16
8.70,57.85,-36.26
8.71,57.48,-36.36
8.72,57.12,-36.46
8.73,56.76,-36.55
8.74,56.39,-36.65
8.75,56.02,-36.75
8.76,55.66,-36.85
8.77,55.29,-36.95
8.78,54.92,-37.04
8.79,54.55,-37.14
8.80,54.18,-37.24
8.81,53.80,-37.34
8.82,53.43,-37.44
8.83,53.06,-37.53
8.84,52.68,-37.63
8.85,52.30,-37.73
8.86,51.93,-37.83
8.87,51.55,-37.93
8.88,51.17,-38.02
8.89,50.79,-38.12
8.90,50.41,-38.22
8.91,50.03,-38.32
8.92,49.64,-38.42
8.93,49.26,-38.51
8.94,48.87,-38.61
8.95,48.49,-38.71
8.96,48.10,-38.81
8.97,47.71,-38.91
8.98,47.32,-39.00
8.99,46.93,-39.10
9.00,46.54,-39.20
9.01,46.15,-39.30
9.02,45.76,-39.40
9.03,45.36,-39.49
9.04,44.97,-39.59
9.05,44.57,-39.69
9.06,44.18,-39.79
9.07,43.78,-39.89
9.08,43.38,-39.98
9.09,42.98,-40.08
9.10,42.58,-40.18
9.11,42.18,-40.28
9.12,41.77,-40.38
9.13,41.37,-40.47
9.14,40.97,-40.57
9.15,40.56,-40.67
9.16,40.15,-40.77
9.17,39.75,-40.87
9.18,39.34,-40.96
9.19,38.93,-41.06
9.20,38.52,-41.16
9.21,38.10,-41.26
9.22,37.69,-41.36
9.23,37.28,-41.45
9.24,36.86,-41.55
9.25,36.45,-41.65
9.26,36.03,-41.75
9.27,35.61,-41.85
9.28,35.20,-41.94
9.29,34.78,-42.04
9.30,34.36,-42.14
9.31,33.93,-42.24
9.32,33.51,-42.34
9.33,33.09,-42.43
9.34,32.66,-42.53
9.35,32.24,-42.63
9.36,31.81,-42.73
9.37,31.39,-42.83
9.38,30.96,-42.92
9.39,30.53,-43.02
9.40,30.10,-43.12
9.41,29.67,-43.22
9.42,29.23,-43.32
9.43,28.80,-43.41
9.44,28.37,-43.51
9.45,27.93,-43.61
9.46,27.50,-43.71
9.47,27.06,-43.81
9.48,26.62,-43.90
9.49,26.18,-44.00
9.50,25.74,-44.10
9.51,25.30,-44.20
9.52,24.86,-44.30
9.53,24.42,-44.39
9.54,23.97,-44.49
9.55,23.53,-44.59
9.56,23.08,-44.69
9.57,22.63,-44.79
9.58,22.19,-44.88
9.59,21.74,-44.98
9.60,21.29,-45.08
9.61,20.84,-45.18
9.62,20.39,-45.28
9.63,19.93,-45.37
9.64,19.48,-45.47
9.65,19.02,-45.57
9.66,18.57,-45.67
9.67,18.11,-45.77
9.68,17.65,-45.86
9.69,17.20,-45.96
9.70,16.74,-46.06
9.71,16.28,-46.16
9.72,15.81,-46.26
9.73,15.35,-46.35
9.74,14.89,-46.45
9.75,14.42,-46.55
9.76,13.96,-46.65
9.77,13.49,-46.75
9.78,13.02,-46.84
9.79,12.56,-46.94
9.80,12.09,-47.04
9.81,11.62,-47.14
9.82,11.14,-47.24
9.83,10.67,-47.33
9.84,10.20,-47.43
9.85,9.72,-47.53
9.86,9.25,-47.63
9.87,8.77,-47.73
9.88,8.30,-47.82
9.89,7.82,-47.92
9.90,7.34,-48.02
9.91,6.86,-48.12
9.92,6.38,-48.22
9.93,5.89,-48.31
9.94,5.41,-48.41
9.95,4.93,-48.51
9.96,4.44,-48.61
9.97,3.96,-48.71
9.98,3.47,-48.80
9.99,2.98,-48.90
